 nb, Z=41, update in 2023 based on ALS transmission measurements
0.500000	-9999.	0.911253E-01
0.507932	-9999.	0.925833E-01
0.515990	-9999.	0.940647E-01
0.524176	-9999.	0.955698E-01
0.532492	-9999.	0.970989E-01
0.540939	-9999.	0.986525E-01
0.549521	-9999.	0.100231
0.558238	-9999.	0.101614
0.567095	-9999.	0.103003
0.576091	-9999.	0.104410
0.585230	-9999.	0.105838
0.594515	-9999.	0.107284
0.603946	-9999.	0.108751
0.613527	-9999.	0.110237
0.623260	-9999.	0.111744
0.633148	-9999.	0.113271
0.643192	-9999.	0.114819
0.653396	-9999.	0.116388
0.663762	-9999.	0.117979
0.674292	-9999.	0.119592
0.684989	-9999.	0.121226
0.695856	-9999.	0.122883
0.706895	-9999.	0.124563
0.718109	-9999.	0.126265
0.729502	-9999.	0.127991
0.741075	-9999.	0.129740
0.752831	-9999.	0.131514
0.764775	-9999.	0.133311
0.776907	-9999.	0.135133
0.789232	-9999.	0.136980
0.801753	-9999.	0.138853
0.814472	-9999.	0.140750
0.827393	-9999.	0.142674
0.840519	-9999.	0.144624
0.853853	-9999.	0.146455
0.867399	-9999.	0.147943
0.881159	-9999.	0.149446
0.895138	-9999.	0.150964
0.909339	-9999.	0.152498
0.923765	-9999.	0.154047
0.938420	-9999.	0.155612
0.953307	-9999.	0.157193
0.968431	-9999.	0.158790
0.983794	-9999.	0.160403
0.999401	-9999.	0.162033
1.01526	-9999.	0.163679
1.03136	-9999.	0.165342
1.04772	-9999.	0.167022
1.06435	-9999.	0.168718
1.08123	-9999.	0.170433
1.09838	-9999.	0.172164
1.11581	-9999.	0.173913
1.13351	-9999.	0.175680
1.15149	-9999.	0.177465
1.16976	-9999.	0.179268
1.18832	-9999.	0.181089
1.20717	-9999.	0.182929
1.22632	-9999.	0.184787
1.24577	-9999.	0.186664
1.26554	-9999.	0.188561
1.28561	-9999.	0.190476
1.30601	-9999.	0.192412
1.32673	-9999.	0.194366
1.34778	-9999.	0.196341
1.36916	-9999.	0.197621
1.39088	-9999.	0.198826
1.41294	-9999.	0.200038
1.43536	-9999.	0.201258
1.45813	-9999.	0.202894
1.48126	-9999.	0.205293
1.50476	-9999.	0.207721
1.52863	-9999.	0.210177
1.55288	-9999.	0.212663
1.57752	-9999.	0.215178
1.60254	-9999.	0.217723
1.62797	-9999.	0.220298
1.65379	-9999.	0.223188
1.68003	-9999.	0.227810
1.70668	-9999.	0.232528
1.73376	-9999.	0.237344
1.76126	-9999.	0.242259
1.78920	-9999.	0.247277
1.81759	-9999.	0.252398
1.84642	-9999.	0.257625
1.87572	-9999.	0.265454
1.90547	-9999.	0.273883
1.93570	-9999.	0.282579
1.96641	-9999.	0.291552
1.99761	-9999.	0.300809
2.02930	-9999.	0.310361
2.06149	-9999.	0.320215
2.09419	-9999.	0.330383
2.12742	-9999.	0.340873
2.16117	-9999.	0.351697
2.19545	-9999.	0.362864
2.23028	-9999.	0.374386
2.26566	-9999.	0.386273
2.30160	-9999.	0.398539
2.33812	-9999.	0.411193
2.37521	-9999.	0.424571
2.41289	-9999.	0.438542
2.45117	-9999.	0.452974
2.49006	-9999.	0.467880
2.52956	-9999.	0.483277
2.56969	-9999.	0.499180
2.61046	-9999.	0.515606
2.65187	-9999.	0.532371
2.69394	-9999.	0.545243
2.73668	-9999.	0.558426
2.78009	-9999.	0.571928
2.82419	-9999.	0.585757
2.86900	-9999.	0.598279
2.91451	-9999.	0.608781
2.96075	-9999.	0.619467
3.00772	-9999.	0.630341
3.05543	-9999.	0.641407
3.10391	-9999.	0.652666
3.15315	-9999.	0.664123
3.20317	-9999.	0.675781
3.25399	-9999.	0.687644
3.30561	-9999.	0.699715
3.35805	-9999.	0.711998
3.41132	-9999.	0.724496
3.46544	-9999.	0.737214
3.52042	-9999.	0.752015
3.57627	-9999.	0.770361
3.63300	-9999.	0.789154
3.69064	-9999.	0.808405
3.74918	-9999.	0.836915
3.80866	-9999.	0.868187
3.86908	-9999.	0.900629
3.93046	-9999.	0.934283
3.99282	-9999.	0.969194
4.05616	-9999.	1.01173
4.12051	-9999.	1.05699
4.18588	-9999.	1.10427
4.25228	-9999.	1.15978
4.31974	-9999.	1.21984
4.38827	-9999.	1.28300
4.45789	-9999.	1.32525
4.52861	-9999.	1.36385
4.60045	-9999.	1.40357
4.67344	-9999.	1.44445
4.74758	-9999.	1.48652
4.82289	-9999.	1.53490
4.89941	-9999.	1.59706
4.97713	-9999.	1.66174
5.05609	-9999.	1.72903
5.13630	-9999.	1.79906
5.21778	-9999.	1.87191
5.30056	-9999.	1.94772
5.38465	-9999.	2.02660
5.47007	-9999.	2.09142
5.55685	-9999.	2.15440
5.64501	-9999.	2.20346
5.73456	-9999.	2.23813
5.82553	-9999.	2.27335
5.91795	-9999.	2.30911
6.01184	-9999.	2.34293
6.10721	-9999.	2.35953
6.20410	-9999.	2.37625
6.30252	-9999.	2.39308
6.40250	-9999.	2.41004
6.50407	-9999.	2.42712
6.60726	-9999.	2.44431
6.71208	-9999.	2.46163
6.81856	-9999.	2.47907
6.92673	-9999.	2.49663
7.03662	-9999.	2.52547
7.14825	-9999.	2.57751
7.26165	-9999.	2.63063
7.37685	-9999.	2.68485
7.49388	-9999.	2.74018
7.61276	-9999.	2.79168
7.73353	-9999.	2.80202
7.85622	-9999.	2.81240
7.98085	-9999.	2.82281
8.10746	-9999.	2.81203
8.23608	-9999.	2.79750
8.36674	-9999.	2.78306
8.49947	-9999.	2.76868
8.63431	-9999.	2.75438
8.77129	-9999.	2.74015
8.91044	-9999.	2.72600
9.05180	-9999.	2.71192
9.19540	-9999.	2.69791
9.34127	-9999.	2.68963
9.48947	-9999.	2.69585
9.64001	-9999.	2.70209
9.79294	-9999.	2.70833
9.94830	0.485179	2.72643
10.1061	0.379022	2.77305
10.2664	0.282130	2.86187
10.4293	0.183429	2.96107
10.5948	0.995814E-01	3.09979
10.7628	0.490517E-01	3.24503
10.9336	0.131249E-01	3.39706
11.1070	-0.601660E-02	3.55622
11.2832	-0.336652E-02	3.72283
11.4622	0.414449E-01	3.87782
11.6441	0.772997E-01	4.00128
11.8288	0.123343	4.12321
12.0165	0.157683	4.21824
12.2071	0.177832	4.31546
12.4008	0.183081	4.41493
12.5975	0.173816	4.51668
12.7973	0.157942	4.67140
13.0004	0.163428	4.83209
13.2066	0.177928	4.99831
13.4161	0.181815	5.17320
13.6289	0.205691	5.39126
13.8452	0.261595	5.61852
14.0648	0.342452	5.85535
14.2879	0.461802	6.10217
14.5146	0.621127	6.33573
14.7449	0.790713	6.55411
14.9788	0.985972	6.78000
15.2164	1.24378	7.00748
15.4578	1.51371	7.15598
15.7030	1.81166	7.30763
15.9521	2.12616	7.39120
16.2052	2.42546	7.42977
16.4623	2.70297	7.46854
16.7235	2.99815	7.50750
16.9888	3.32280	7.46518
17.2583	3.58712	7.39021
17.5321	3.82606	7.31601
17.8102	4.06369	7.24254
18.0927	4.30162	7.14802
18.3798	4.51197	7.01055
18.6714	4.68531	6.87572
18.9676	4.83034	6.74349
19.2000	4.92071	6.64291
19.4000	4.99104	6.68212
19.7078	5.24992	6.56729
20.0204	5.45473	6.45442
20.3380	5.69651	6.27554
20.6607	5.87193	6.01605
20.9884	6.00402	5.76728
21.3214	6.07288	5.45330
21.6597	6.06038	5.18838
21.8000	6.06337	5.08768
22.0000	6.02805	5.05663
22.3490	6.10398	4.75849
22.7036	6.02997	4.63565
23.0637	6.10622	4.49404
23.4296	6.14237	4.14305
23.8013	6.06069	3.81946
24.1789	5.91902	3.52115
24.5625	5.73139	3.24614
24.9522	5.49814	2.99261
25.0500	5.42748	2.93271
25.4300	5.19017	2.77360
25.8300	4.92242	2.61254
26.2398	4.55846	2.33846
26.2400	4.59924	2.33832
26.3800	4.39932	2.37555
26.6600	4.22017	2.33177
26.9500	3.97637	2.24491
27.3775	3.56807	2.17767
27.4000	3.55844	2.17423
27.5500	3.40759	2.18558
27.9871	3.05168	2.14364
28.4311	2.60350	2.10251
28.8821	2.08959	2.06934
29.3403	1.45167	2.09203
29.5200	1.14230	2.10090
29.6900	0.807059	2.15698
29.8700	0.420741	2.26952
30.0500	-0.204483E-01	2.49093
30.4200	-0.467687	3.41820
30.8000	-0.413534	4.15128
30.9900	-0.249757	4.05372
31.3900	-0.568582	4.30621
31.5900	-0.656202	4.08255
32.0912	-1.81811	4.84415
32.6003	-2.08718	5.74783
32.6200	-2.09640	5.78576
33.0600	-2.28793	6.49777
33.5845	-2.50763	7.30508
34.1173	-2.74016	8.21270
34.4400	-2.94204	8.80866
34.6800	-2.89839	9.57144
35.1700	-2.87778	10.4490
35.4580	-2.62857	11.2729
36.0205	-2.23328	12.3478
36.5920	-1.67639	13.5253
37.1725	-0.814737	14.5530
37.7622	0.999854E-01	15.5224
38.3612	1.20022	16.2758
38.9698	2.50299	16.7997
39.5880	3.73541	17.0800
40.2161	4.83803	17.1222
40.8541	5.88877	17.0968
41.5022	6.80496	16.8678
42.1606	7.54294	16.6384
42.8294	8.13196	16.4122
43.5089	8.63386	16.3843
44.1991	9.23011	16.3966
44.9003	9.87878	16.4088
45.6126	10.5694	16.4211
46.3362	11.3253	16.4334
47.0713	12.2292	16.4457
47.8181	13.2482	16.1304
48.5767	14.1229	15.6863
49.3473	14.9476	15.1846
50.1302	15.6539	14.5470
50.9254	16.2808	13.9362
51.7333	16.8647	13.2266
52.5541	17.3172	12.4818
53.3878	17.7159	11.7789
54.2347	18.0460	11.0020
55.0951	18.2349	10.2234
55.9692	18.3354	9.49989
56.8571	18.3782	8.82758
57.7591	18.3798	8.20287
58.6754	18.3162	7.62235
58.7600	18.2992	7.57130
59.0400	18.3996	7.52903
59.6000	18.3821	6.99986
60.5455	18.1275	6.55668
61.0700	18.1904	6.32584
61.3700	18.2047	6.07982
61.6800	18.1014	5.97176
62.6585	18.0747	5.43902
63.6525	17.8773	4.95382
64.6623	17.6748	4.52168
65.6882	17.4687	4.13016
66.7302	17.2570	3.77255
67.7889	17.0452	3.44590
68.8643	16.8474	3.13398
69.9568	16.6430	2.82716
70.0400	16.6285	2.80525
71.0500	16.4555	2.47877
71.4600	16.3029	2.35991
72.5937	15.9585	2.15606
73.7453	15.6965	1.97446
74.9152	15.4324	1.80991
76.1037	15.1622	1.67855
77.3110	14.9216	1.58181
78.5375	14.6998	1.49064
79.7834	14.4836	1.40473
81.0491	14.2772	1.33786
82.3349	14.0844	1.27668
83.6411	13.8984	1.21829
84.9680	13.7091	1.16258
86.3160	13.5194	1.13074
87.6853	13.3475	1.10440
89.0764	13.1772	1.07867
90.4895	13.0134	1.07338
91.9250	12.8621	1.06987
93.3834	12.7137	1.06637
94.8648	12.5723	1.07587
96.3698	12.4406	1.08726
97.8986	12.3165	1.09877
99.4517	12.1970	1.11040
101.029	12.0797	1.12215
102.632	11.9607	1.13533
104.260	11.8473	1.15971
105.914	11.7414	1.18462
107.595	11.6403	1.21006
109.302	11.5449	1.23605
111.036	11.4529	1.25924
112.797	11.3608	1.28179
114.586	11.2699	1.30475
116.404	11.1799	1.32813
118.251	11.0907	1.35192
120.127	11.0021	1.37613
122.033	10.9138	1.40078
123.969	10.8255	1.42587
125.935	10.7368	1.45141
127.933	10.6470	1.47741
129.963	10.5555	1.50707
132.024	10.4662	1.53847
134.119	10.3777	1.57053
136.247	10.2898	1.60326
138.408	10.2023	1.63667
140.604	10.1209	1.67077
142.834	10.0402	1.69628
145.100	9.95300	1.71334
147.402	9.85789	1.73057
149.741	9.75714	1.74797
152.116	9.65103	1.76555
154.529	9.53941	1.78331
156.981	9.42196	1.80124
159.471	9.29823	1.81935
162.001	9.16768	1.83765
164.571	9.02963	1.85613
167.182	8.88328	1.87480
169.834	8.72771	1.89365
172.529	8.56181	1.91270
175.266	8.38427	1.93193
178.046	8.19349	1.95136
180.871	7.98756	1.97099
183.740	7.76456	1.99081
186.655	7.51978	2.00868
189.616	7.24789	2.02655
192.624	6.94149	2.04458
195.680	6.58711	2.06277
198.784	6.14451	2.08112
200.610	5.55851	2.09185
201.260	5.62158	2.44795
201.920	5.69475	2.44283
203.240	5.46819	2.32027
203.910	5.46016	2.47987
204.580	5.31969	2.52930
207.320	5.09604	2.52079
208.710	4.72849	2.61769
210.840	4.35876	2.71493
214.185	3.65832	3.21444
217.583	3.19140	3.79636
221.034	2.69406	4.05399
224.541	1.84506	4.59256
226.230	1.73409	4.94104
229.690	1.58763	5.98733
230.440	0.911587	5.72043
234.096	0.243126	7.10827
237.500	0.189674	8.67545
240.260	0.422839	9.68127
244.050	1.00115	10.5383
245.990	1.07303	11.0641
249.892	1.61411	11.7206
250.960	1.70318	11.9050
254.050	1.96048	12.0841
256.150	1.78463	12.6766
260.214	2.01208	13.3883
260.450	2.11196	13.4305
261.550	2.00945	13.9856
263.780	2.57176	14.4060
266.040	2.86602	14.6228
270.261	3.18432	15.3196
273.070	3.57332	15.7954
275.500	3.88310	16.0801
279.871	4.40965	16.7704
281.760	4.80274	17.0744
284.350	5.17703	17.2948
288.861	5.79940	17.6923
293.444	6.60139	18.0989
298.099	7.47016	18.0730
302.828	7.73586	17.8863
307.632	7.94042	18.2695
312.512	8.34915	18.5558
317.470	8.72073	18.7505
322.507	9.05545	18.9890
327.623	9.41880	19.2355
332.820	9.75710	19.4182
338.100	9.95948	19.6027
343.464	10.0468	19.8449
348.913	10.0970	20.3427
354.448	10.0131	20.8530
356.240	9.93921	21.0192
358.300	8.94937	21.5244
360.380	8.56953	23.3983
362.490	10.8976	27.2002
364.630	14.6760	25.5284
366.780	15.1061	22.7465
368.960	15.2468	22.0891
374.813	13.5659	23.1239
375.670	13.6422	23.2779
377.970	14.5035	24.3827
382.630	16.4940	22.1987
385.010	15.6174	22.2135
387.410	15.8183	22.7719
393.556	16.2889	22.8075
399.799	16.8611	22.8606
406.142	17.5515	22.9408
412.585	18.3865	22.8705
419.130	19.0168	22.4869
425.780	19.3442	22.1602
432.534	19.6665	22.0627
439.396	20.0336	21.9656
446.367	20.3885	21.8689
453.448	20.5527	21.7726
460.642	20.6752	22.0442
461.740	20.7598	22.0915
464.340	20.8945	22.3502
471.706	21.7981	22.5382
475.930	22.2299	22.6453
478.680	22.5973	22.6578
486.274	23.3501	22.1753
493.988	23.7463	21.8663
501.825	24.3248	21.7173
501.940	24.3345	21.7152
505.010	24.3307	21.4031
513.022	24.6038	21.4472
521.160	25.0395	21.4914
529.428	25.6527	21.5357
537.827	26.4288	21.3599
542.560	26.8189	21.2060
547.360	27.2351	21.0286
552.240	27.5995	20.7430
561.001	28.1381	20.1158
563.540	28.2475	19.9394
571.390	28.3308	19.1876
580.455	28.3056	19.0078
589.663	28.4661	18.8297
599.018	28.6801	18.6532
608.521	28.9220	18.4784
618.174	29.1866	18.3053
627.981	29.4844	18.1337
637.944	29.8092	17.9099
648.064	30.0951	17.6442
658.345	30.3536	17.3824
668.790	30.5960	17.1246
679.399	30.8263	16.8705
690.178	31.0466	16.6203
701.127	31.2585	16.3737
712.250	31.4631	16.1308
723.549	31.6613	15.8915
735.027	31.8540	15.6558
746.688	32.0422	15.4235
758.534	32.2271	15.1947
770.567	32.4103	14.9693
782.792	32.5951	14.7472
795.210	32.7899	14.5267
807.826	32.9792	14.2690
820.641	33.1471	14.0158
833.660	33.3019	13.7671
846.885	33.4494	13.5229
860.321	33.5916	13.2830
873.969	33.7306	13.0473
887.834	33.8780	12.8158
901.919	34.0308	12.5704
916.227	34.1783	12.3107
930.762	34.3395	12.0407
945.528	34.4125	11.6632
960.528	34.4400	11.4194
975.766	34.4759	11.1871
991.246	34.5265	10.9595
1006.97	34.5747	10.7365
1022.95	34.6203	10.5180
1039.17	34.6629	10.3040
1055.66	34.7024	10.0944
1072.41	34.7389	9.88899
1089.42	34.7726	9.68779
1106.70	34.8036	9.49068
1124.26	34.8324	9.29757
1142.10	34.8595	9.10841
1160.21	34.8854	8.92309
1178.62	34.9112	8.74154
1197.32	34.9384	8.56368
1216.31	34.9700	8.38944
1235.61	35.0128	8.21875
1255.21	35.0973	8.05152
1275.12	35.2120	7.74230
1295.35	35.1418	7.32844
1315.90	34.9790	7.17136
1336.78	34.8952	7.01767
1357.99	34.8279	6.86726
1379.53	34.7672	6.72007
1401.41	34.7091	6.57604
1423.65	34.6518	6.43510
1446.23	34.5943	6.29718
1469.17	34.5361	6.16221
1492.48	34.4785	6.03013
1516.16	34.4187	5.89376
1540.21	34.3519	5.75924
1564.65	34.2794	5.62780
1589.47	34.2017	5.49935
1614.68	34.1187	5.37383
1640.30	34.0302	5.25119
1666.32	33.9359	5.13133
1692.76	33.8352	5.01422
1719.61	33.7278	4.89978
1746.89	33.6128	4.78795
1774.60	33.4897	4.67867
1802.76	33.3574	4.57189
1831.36	33.2151	4.46754
1860.41	33.0613	4.36557
1889.92	32.8947	4.26594
1919.91	32.7132	4.16857
1950.36	32.5147	4.07343
1981.30	32.2963	3.98046
2012.74	32.0542	3.88961
2044.67	31.7837	3.80084
2077.10	31.4784	3.71409
2110.06	31.1295	3.62932
2143.53	30.7245	3.54649
2177.54	30.2446	3.46554
2212.08	29.6600	3.38645
2247.17	28.9182	3.30916
2282.82	27.9127	3.23363
2319.04	26.3668	3.16221
2355.83	22.8701	3.09655
2367.	19.0235	3.07709
2370.40	9.61049	3.07120
2370.60	9.61202	11.3848
2398.	24.2235	11.1855
2436.04	25.6006	10.9182
2461.	23.9051	10.7485
2464.60	19.3646	10.7244
2464.80	19.3714	14.7781
2493.	27.4308	14.5476
2532.55	29.3444	14.2347
2572.73	30.5108	13.9284
2613.54	31.3059	13.6288
2655.	31.7600	13.3356
2695.	30.8552	13.0629
2697.60	28.9734	13.0455
2697.80	28.9801	14.8877
2730.	32.8699	14.6250
2773.31	33.9442	14.2836
2817.31	34.7138	13.9501
2862.	35.3424	13.6245
2907.40	35.8800	13.3064
2953.53	36.3511	12.9958
3000.38	36.7699	12.6924
3047.98	37.1460	12.3961
3096.34	37.4862	12.1067
3145.46	37.7958	11.8241
3195.36	38.0788	11.5480
3246.05	38.3384	11.2785
3297.55	38.5774	11.0152
3349.86	38.7980	10.7580
3403.	39.0022	10.5069
3456.99	39.1918	10.2616
3511.83	39.3682	10.0220
3567.54	39.5330	9.78809
3624.14	39.6874	9.55960
3681.63	39.8330	9.33642
3740.04	39.9756	9.11847
3799.37	40.1159	8.89692
3859.65	40.2389	8.66663
3920.88	40.3463	8.44233
3983.08	40.4427	8.22382
4046.27	40.5296	8.01096
4110.46	40.6083	7.80362
4175.67	40.6795	7.60165
4241.91	40.7439	7.40491
4309.21	40.8021	7.21324
4377.57	40.8546	7.02655
4447.02	40.9019	6.84469
4517.56	40.9443	6.66752
4589.23	40.9822	6.49495
4662.04	41.0159	6.32685
4736.	41.0458	6.16308
4811.13	41.0721	6.00357
4887.45	41.0950	5.84819
4964.99	41.1148	5.69683
5043.76	41.1318	5.54937
5123.77	41.1460	5.40575
5205.06	41.1578	5.26584
5287.63	41.1672	5.12953
5371.51	41.1745	4.99677
5456.73	41.1798	4.86745
5543.30	41.1832	4.74146
5631.24	41.1850	4.61874
5720.57	41.1852	4.49920
5811.32	41.1839	4.38275
5903.52	41.1814	4.26931
5997.17	41.1777	4.15881
6092.31	41.1732	4.05118
6188.96	41.1679	3.94632
6287.15	41.1628	3.84418
6386.89	41.1581	3.74254
6488.21	41.1512	3.64017
6591.14	41.1410	3.54059
6695.70	41.1290	3.44375
6801.93	41.1155	3.34955
6909.83	41.1009	3.25792
7019.45	41.0851	3.16881
7130.81	41.0684	3.08213
7243.94	41.0509	2.99782
7358.86	41.0325	2.91582
7475.60	41.0135	2.83606
7594.19	40.9938	2.75848
7714.67	40.9735	2.68302
7837.06	40.9527	2.60963
7961.39	40.9313	2.53825
8087.69	40.9096	2.46882
8215.99	40.8874	2.40129
8346.33	40.8648	2.33560
8478.74	40.8418	2.27171
8613.25	40.8185	2.20957
8749.89	40.7948	2.14913
8888.70	40.7709	2.09034
9029.72	40.7467	2.03317
9172.97	40.7222	1.97755
9318.49	40.6974	1.92346
9466.32	40.6724	1.87084
9616.50	40.6471	1.81967
9769.05	40.6215	1.76990
9924.03	40.5957	1.72148
10081.5	40.5697	1.67439
10241.4	40.5433	1.62859
10403.9	40.5167	1.58404
10568.9	40.4898	1.54071
10736.6	40.4626	1.49857
10906.9	40.4351	1.45757
11080.0	40.4072	1.41770
11255.7	40.3789	1.37893
11434.3	40.3503	1.34121
11615.7	40.3212	1.30452
11800.0	40.2916	1.26883
11987.2	40.2614	1.23413
12177.3	40.2307	1.20037
12370.5	40.1994	1.16753
12566.8	40.1673	1.13560
12766.1	40.1345	1.10453
12968.6	40.1008	1.07432
13174.4	40.0660	1.04493
13383.4	40.0302	1.01635
13595.7	39.9932	0.988549
13811.4	39.9547	0.961509
14030.5	39.9147	0.935209
14253.1	39.8729	0.909626
14479.2	39.8290	0.884744
14708.9	39.7827	0.860544
14942.2	39.7338	0.837003
15179.3	39.6816	0.814108
15420.1	39.6257	0.791840
15664.7	39.5655	0.770178
15913.2	39.4999	0.749111
16165.7	39.4279	0.728621
16422.1	39.3480	0.708691
16682.7	39.2582	0.689304
16947.3	39.1556	0.670449
17216.2	39.0360	0.652111
17489.3	38.8930	0.634272
17766.8	38.7157	0.616922
18048.6	38.4845	0.600047
18334.9	38.1561	0.583633
18625.8	37.6045	0.567669
18921.3	35.8947	0.552141
18972.0	34.1578	0.549543
18982.9	29.3781	0.548989
18983.1	29.3783	3.74732
19077.0	36.3892	3.71701
19379.6	37.9245	3.62195
19687.1	38.5544	3.52933
19999.4	38.9611	3.43908
20316.7	39.2617	3.35113
20639.0	39.4992	3.26544
20966.4	39.6946	3.18194
21299.0	39.8596	3.10057
21636.9	40.0016	3.02128
21980.2	40.1253	2.94402
22328.9	40.2344	2.86874
22683.1	40.3312	2.79538
23043.0	40.4179	2.72390
23408.5	40.4957	2.65424
23779.9	40.5660	2.58636
24157.1	40.6297	2.52023
24540.4	40.6876	2.45578
24929.7	40.7404	2.39299
25325.2	40.7886	2.33179
25726.9	40.8328	2.27216
26135.1	40.8733	2.21406
26549.7	40.9106	2.15744
26970.9	40.9450	2.10227
27398.7	40.9768	2.04851
27833.4	41.0067	1.99612
28275.0	41.0352	1.94387
28723.5	41.0608	1.89152
29179.2	41.0834	1.84058
29642.1	41.1060	1.79102
30000.0	41.1035	1.75412
