 y , Z=39, (Energy (eV),f1,f2)
10.0000	-9999.	2.26036
10.1617	-9999.	2.25621
10.3261	-9999.	2.25207
10.4931	-9999.	2.24793
10.6628	-9999.	2.24380
10.8353	-9999.	2.23968
11.0105	-9999.	2.23344
11.1886	-9999.	2.21122
11.3696	-9999.	2.18921
11.5535	-9999.	2.16742
11.7404	-9999.	2.14585
11.9303	-9999.	2.12450
12.1232	-9999.	2.10335
12.3193	-9999.	2.07380
12.5186	-9999.	2.04269
12.7210	-9999.	2.01204
12.9268	-9999.	1.98186
13.1359	-9999.	1.95212
13.3483	-9999.	1.92284
13.5642	-9999.	1.89327
13.7836	-9999.	1.82864
14.0066	-9999.	1.76623
14.2331	-9999.	1.70594
14.4633	-9999.	1.64771
14.6972	-9999.	1.58943
14.9350	-9999.	1.53225
15.1765	-9999.	1.47713
15.4220	-9999.	1.42399
15.6714	-9999.	1.37276
15.9249	-9999.	1.32265
16.1825	-9999.	1.27375
16.4442	-9999.	1.22665
16.7102	-9999.	1.18130
16.9805	-9999.	1.13762
17.2551	-9999.	1.10152
17.5342	-9999.	1.07044
17.8178	-9999.	1.04024
18.1060	-9999.	1.01089
18.3988	-9999.	0.982371
18.6964	-9999.	0.954655
18.9988	-9999.	0.942544
19.3061	1.80540	0.937273
19.6184	1.66248	0.932032
19.9357	1.50949	0.926821
20.2581	1.34351	0.921638
20.5858	1.16182	0.922102
20.9187	0.970881	0.936426
21.2571	0.770034	0.950974
21.6009	0.551646	0.965747
21.9503	0.309543	0.987725
22.3053	0.531758E-01	1.02598
22.6661	-0.216298	1.06571
23.0327	-0.513192	1.10698
23.4052	-0.848870	1.15126
23.7838	-1.22290	1.23258
24.1685	-1.62238	1.31965
24.5594	-2.06339	1.41286
24.9566	-2.61408	1.51266
25.3602	-3.27588	1.65750
25.7704	-3.99719	1.93276
26.1872	-4.85210	2.25373
26.6108	-5.89184	2.62799
27.0412	-7.22950	3.30043
27.4786	-8.91076	4.83100
27.9230	-10.2305	7.07139
28.3747	-10.7527	10.3507
28.8336	-9.40989	14.3122
29.3000	-7.23951	15.2940
29.7739	-5.51406	16.3430
30.2554	-4.03088	17.4641
30.7448	-2.24796	18.2054
31.2421	-0.709192	18.5804
31.7474	0.672396	18.9631
32.2609	2.13552	19.3537
32.7827	3.63912	19.3689
33.3129	5.03573	19.2585
33.8517	6.40481	19.1487
34.3992	8.16547	18.9466
34.9556	9.43006	17.8329
35.5210	10.1861	16.9741
36.0955	10.8649	16.2497
36.6793	11.5015	15.5562
37.2726	12.0518	14.8923
37.8754	12.5394	14.2567
38.4880	12.9806	13.6483
39.1106	13.3940	13.0658
39.7431	13.8371	12.5082
40.3860	14.2117	11.8186
41.0392	14.5002	11.1054
41.7029	14.6919	10.4353
42.3774	14.8156	9.80554
43.0629	14.8977	9.21383
43.7594	14.9446	8.65783
44.4671	14.9940	8.13537
45.1864	15.0239	7.63813
45.9172	15.0165	7.08106
46.6599	14.9472	6.56460
47.4146	14.8373	6.08582
48.1815	14.6995	5.64195
48.9608	14.5103	5.23046
49.7527	14.2983	4.85034
50.5574	14.0848	4.60150
51.3751	13.9094	4.36542
52.2061	13.7511	4.14146
53.0505	13.6011	3.92898
53.9085	13.4542	3.72741
54.7804	13.3088	3.53618
55.6665	13.1610	3.36238
56.5668	13.0219	3.20376
57.4817	12.8878	3.05262
58.4115	12.7562	2.90862
59.3562	12.6215	2.77140
60.3163	12.4873	2.64500
61.2918	12.3572	2.53293
62.2832	12.2321	2.42560
63.2906	12.1085	2.32283
64.3142	11.9844	2.22440
65.3545	11.8559	2.13228
66.4115	11.7280	2.05594
67.4857	11.6066	1.98234
68.5772	11.4815	1.91137
69.6864	11.3533	1.84294
70.8135	11.2171	1.80471
71.9588	11.1005	1.77804
73.1227	10.9944	1.75176
74.3054	10.8944	1.72587
75.5072	10.7983	1.70036
76.7285	10.7047	1.67523
77.9695	10.6124	1.65047
79.2306	10.5151	1.62608
80.5121	10.4183	1.60865
81.8143	10.3257	1.60144
83.1376	10.2390	1.59426
84.4823	10.1545	1.58711
85.8487	10.0691	1.58293
87.2373	9.98863	1.58207
88.6483	9.91062	1.58120
90.0821	9.83313	1.58058
91.5391	9.75863	1.58409
93.0197	9.68719	1.58761
94.5242	9.62116	1.59114
96.0530	9.55754	1.58580
97.6066	9.49121	1.57338
99.1853	9.41598	1.56106
100.790	9.33616	1.55118
102.420	9.25366	1.54379
104.076	9.16987	1.53644
105.760	9.08283	1.52912
107.470	8.99136	1.52183
109.208	8.89244	1.51458
110.975	8.78746	1.51752
112.770	8.68192	1.52884
114.594	8.58187	1.54025
116.447	8.48167	1.55174
118.331	8.38145	1.56332
120.245	8.28378	1.57294
122.189	8.17775	1.56856
124.166	8.06316	1.56420
126.174	7.93700	1.55984
128.215	7.79890	1.55550
130.288	7.65044	1.55301
132.396	7.49140	1.56205
134.537	7.32708	1.57114
136.713	7.15304	1.58029
138.924	6.96615	1.58949
141.171	6.76390	1.60069
143.455	6.54441	1.61378
145.775	6.30422	1.62699
148.133	6.03260	1.64030
150.000	5.79269	1.65077
150.500	5.73165	1.75643
151.000	5.70479	1.66206
151.500	5.63655	1.70306
152.000	5.54272	1.62367
152.500	5.43879	1.68276
153.000	5.35679	1.68498
153.500	5.29019	1.69483
154.000	5.13828	1.65294
154.500	4.93574	1.68772
155.000	4.85238	1.99097
155.500	4.91670	1.99897
156.000	4.90894	2.03896
156.500	4.81720	1.91365
157.000	4.72967	2.12152
157.500	4.71549	2.04821
158.000	4.70081	2.16311
158.500	4.62995	1.99544
159.000	4.52197	2.09728
159.500	4.45521	2.06889
160.000	4.33112	2.02440
160.500	4.18897	2.10791
161.000	4.08108	2.12754
161.500	3.95706	2.22372
162.000	3.87098	2.29180
162.500	3.80975	2.40058
163.000	3.71909	2.40817
164.000	3.53358	2.54523
164.500	3.49304	2.66911
165.000	3.42160	2.66983
165.500	3.35150	2.76684
166.500	3.22041	2.93969
167.000	3.22114	3.01834
167.500	3.16592	2.99082
168.000	3.07378	3.03184
168.500	3.00944	3.11773
169.000	2.94982	3.11159
169.500	2.88153	3.18343
170.000	2.80382	3.16639
170.500	2.66406	3.17433
171.000	2.54859	3.29232
171.500	2.43958	3.29147
172.000	2.33489	3.41554
172.500	2.19046	3.37846
173.000	2.04149	3.55040
173.500	1.91848	3.60124
174.000	1.81999	3.73595
175.000	1.55152	3.91309
176.500	1.15798	4.30985
177.000	0.988474	4.41705
177.500	0.828791	4.59642
178.000	0.608946	4.82901
178.500	0.467588	5.11110
178.980	0.387934	5.57146
180.000	0.547609	5.95272
181.010	0.573179	6.45118
182.010	0.794611	6.90638
184.954	1.46632	7.50494
186.000	1.68846	7.72744
187.000	1.71015	7.66112
188.000	1.76216	7.85899
189.000	1.77107	7.84129
191.000	1.78544	8.06229
192.000	1.74871	8.11829
193.000	1.68994	8.25804
194.000	1.57758	8.33116
197.000	1.31910	8.89246
199.000	1.13488	9.36326
200.000	1.05856	9.67822
201.000	1.09016	10.0825
203.000	1.21292	10.6418
204.000	1.32860	10.9649
206.000	1.65744	11.4828
207.000	1.83107	11.6820
209.000	1.98640	11.8607
210.000	2.14159	12.2032
211.000	2.33184	12.2844
214.413	2.64921	12.7433
215.010	2.72779	12.8246
216.000	2.84695	12.9753
217.000	2.97587	13.0648
218.000	3.08429	13.2401
219.000	3.19101	13.2611
220.000	3.27631	13.4783
221.000	3.39218	13.5031
222.000	3.49585	13.6941
223.000	3.56444	13.6771
224.000	3.55750	13.8454
225.010	3.67715	14.0995
227.010	3.93550	14.3437
230.682	4.41395	14.7771
234.413	4.89071	15.0189
238.204	5.24327	15.2724
240.000	5.44874	15.4018
242.000	5.62461	15.5077
243.000	5.67146	15.4875
244.000	5.65298	15.6889
247.000	6.00145	15.8724
250.010	6.29158	16.1763
251.010	6.40222	16.2065
252.000	6.45795	16.3194
255.010	6.80246	16.3995
256.000	6.80231	16.5070
260.010	7.20078	16.7771
263.000	7.39140	16.9045
264.000	7.55556	17.0134
268.010	7.93377	17.1948
270.010	8.10191	17.1868
271.010	8.13039	17.2567
273.000	8.33598	17.2963
274.000	8.31461	17.2393
275.000	8.39298	17.3801
276.000	8.40729	17.3371
278.000	8.43278	17.4716
279.010	8.44334	17.6765
280.000	8.69373	17.7268
281.010	8.81232	17.8899
283.010	9.02424	17.1837
284.010	8.72065	17.6357
285.000	8.88602	17.6664
286.000	8.86279	17.5701
287.010	8.94025	17.7376
288.000	8.97902	17.5499
289.000	8.73648	17.2842
291.000	8.27288	17.6713
292.000	8.08787	17.7838
293.010	7.88993	18.0688
294.000	7.66305	18.2324
295.000	7.23429	18.6241
296.000	6.85085	19.3990
297.000	7.07029	20.7923
298.000	8.00190	21.6229
299.000	8.98118	21.8705
300.000	9.82752	21.8232
301.000	10.5493	21.6148
302.000	10.9644	21.0288
303.000	11.0398	20.6797
304.000	11.0313	20.4744
306.000	10.8949	20.3608
307.000	10.7794	20.4228
308.010	10.6468	20.6442
309.010	10.8041	21.2257
310.010	11.2611	21.5040
311.000	11.7217	21.5352
313.000	12.5310	21.2928
314.010	12.6713	20.9866
316.010	12.8642	20.7351
321.010	13.0891	20.5307
323.000	13.2068	20.5850
325.000	13.3448	20.5758
329.010	13.7759	20.7692
330.000	13.8403	20.7250
330.990	13.9285	20.7893
333.000	14.1483	20.7706
334.000	14.2174	20.8301
339.000	14.8288	20.8232
340.990	15.0103	20.7675
342.000	15.0861	20.7849
344.000	15.2778	20.7051
347.010	15.4659	20.7404
348.000	15.5850	20.6363
349.000	15.6085	20.7141
350.000	15.7540	20.6692
355.661	16.0562	20.6854
361.414	16.4903	20.7017
367.259	16.9272	20.7180
373.199	17.3601	20.7343
379.235	17.7954	20.7507
385.369	18.2372	20.7670
391.602	18.6911	20.7834
397.936	19.1730	20.7997
404.372	19.6656	20.7560
410.913	20.1500	20.6837
417.559	20.6031	20.6118
424.313	21.0524	20.5400
431.176	21.5037	20.4686
438.150	21.9707	20.3974
445.236	22.4954	20.3264
452.438	23.0272	20.1901
459.755	23.5353	19.9272
467.192	23.9684	19.6677
474.748	24.3635	19.4116
482.427	24.7316	19.1588
490.230	25.0783	18.9093
498.159	25.4071	18.6631
506.216	25.7204	18.4201
514.404	26.0202	18.1802
522.724	26.3080	17.9434
531.178	26.5851	17.7098
539.770	26.8527	17.4792
548.500	27.1124	17.2515
557.372	27.3661	17.0252
566.387	27.6101	16.7970
575.547	27.8457	16.5718
584.856	28.0733	16.3497
594.316	28.2946	16.1305
603.929	28.5104	15.9143
613.697	28.7216	15.7010
623.623	28.9294	15.4905
633.709	29.1345	15.2828
643.959	29.3453	15.0780
654.375	29.5737	14.8684
664.959	29.7905	14.6210
675.714	29.9727	14.3778
686.643	30.1451	14.1386
697.749	30.3084	13.9033
709.034	30.4642	13.6720
720.502	30.6138	13.4446
732.156	30.7583	13.2209
743.998	30.9009	13.0009
756.032	31.0449	12.7846
768.260	31.1903	12.5697
780.686	31.3354	12.3190
793.313	31.4541	12.0732
806.144	31.5595	11.8324
819.183	31.6547	11.5964
832.432	31.7412	11.3651
845.896	31.8202	11.1384
859.578	31.8923	10.9162
873.481	31.9580	10.6984
887.609	32.0180	10.4850
901.965	32.0725	10.2759
916.554	32.1219	10.0709
931.378	32.1665	9.87001
946.443	32.2065	9.67313
961.750	32.2422	9.48019
977.306	32.2738	9.29108
993.113	32.3014	9.10575
1009.18	32.3254	8.92412
1025.50	32.3458	8.74610
1042.09	32.3628	8.57164
1058.94	32.3768	8.40067
1076.07	32.3877	8.23309
1093.47	32.3977	8.06887
1111.16	32.4074	7.90791
1129.13	32.4134	7.74174
1147.39	32.4127	7.57545
1165.95	32.4048	7.41273
1184.81	32.3915	7.25351
1203.97	32.3734	7.09770
1223.45	32.3507	6.94524
1243.23	32.3235	6.79606
1263.34	32.2918	6.65009
1283.78	32.2556	6.50724
1304.54	32.2150	6.36747
1325.64	32.1698	6.23070
1347.08	32.1198	6.09686
1368.87	32.0650	5.96590
1391.01	32.0051	5.83776
1413.51	31.9399	5.71236
1436.37	31.8691	5.58966
1459.60	31.7922	5.46960
1483.21	31.7089	5.35211
1507.20	31.6187	5.23715
1531.58	31.5209	5.12465
1556.35	31.4148	5.01458
1581.52	31.2996	4.90687
1607.10	31.1743	4.80147
1633.10	31.0376	4.69834
1659.51	30.8880	4.59741
1686.35	30.7237	4.49866
1713.63	30.5424	4.40203
1741.34	30.3412	4.30748
1769.51	30.1164	4.21495
1798.13	29.8631	4.12442
1827.21	29.5747	4.03583
1856.77	29.2422	3.94914
1886.80	28.8524	3.86431
1917.31	28.3851	3.78131
1948.33	27.8076	3.70009
1979.84	27.0600	3.62061
2011.86	26.0134	3.54284
2044.40	24.2835	3.46674
2077.47	17.6217	3.39227
2079.90	9.66472	3.38691
2080.10	9.66677	11.1239
2111.07	23.4143	10.7683
2124.	23.9091	10.6247
2141.	23.8153	10.4401
2155.40	18.3909	10.2874
2155.60	18.3957	14.0289
2175.63	25.2657	13.9148
2210.82	27.2462	13.7190
2246.58	28.4477	13.5260
2282.91	29.3378	13.3243
2319.84	29.9527	12.9956
2357.36	30.0481	12.6750
2372.40	27.8797	12.5501
2372.60	27.8872	14.1143
2395.49	30.8147	13.9530
2434.23	31.8187	13.6874
2473.60	32.5266	13.4268
2513.61	33.1118	13.1712
2554.27	33.6211	12.9205
2595.58	34.0762	12.6746
2637.56	34.4901	12.4333
2680.22	34.8718	12.1966
2723.57	35.2255	11.9645
2767.63	35.5799	11.7367
2812.39	35.9242	11.5133
2857.88	36.2443	11.2220
2904.10	36.5185	10.9337
2951.07	36.7589	10.6529
2998.80	36.9741	10.3792
3047.31	37.1683	10.1126
3096.59	37.3442	9.85285
3146.68	37.5041	9.59977
3197.57	37.6493	9.35318
3249.29	37.7811	9.11290
3301.85	37.8999	8.87882
3355.25	38.0065	8.65225
3409.52	38.1040	8.43767
3464.67	38.1957	8.22841
3520.71	38.2817	8.02432
3577.65	38.3613	7.82531
3635.52	38.4350	7.63124
3694.32	38.5034	7.44198
3754.07	38.5675	7.25741
3814.79	38.6304	7.07740
3876.49	38.6853	6.89212
3939.19	38.7322	6.71166
4002.90	38.7719	6.53592
4067.65	38.8035	6.36478
4133.44	38.8283	6.19813
4200.29	38.8437	6.04342
4268.23	38.8621	5.90107
4337.26	38.8821	5.76208
4407.42	38.9018	5.62636
4478.70	38.9208	5.49384
4551.14	38.9387	5.36443
4624.75	38.9558	5.23808
4699.55	38.9721	5.11470
4775.57	38.9880	4.99423
4852.81	39.0044	4.87660
4931.30	39.0242	4.76049
5011.06	39.0423	4.63518
5092.11	39.0527	4.51318
5174.47	39.0583	4.39439
5258.16	39.0614	4.27873
5343.21	39.0621	4.16611
5429.63	39.0608	4.05645
5517.45	39.0577	3.94968
5606.69	39.0530	3.84572
5697.37	39.0469	3.74450
5789.52	39.0394	3.64595
5883.16	39.0308	3.54998
5978.32	39.0210	3.45654
6075.01	39.0103	3.36556
6173.27	38.9986	3.27698
6273.12	38.9861	3.19073
6374.58	38.9728	3.10675
6477.69	38.9588	3.02498
6582.46	38.9442	2.94535
6688.92	38.9289	2.86783
6797.11	38.9132	2.79234
6907.05	38.8970	2.71885
7018.77	38.8803	2.64729
7132.29	38.8633	2.57761
7247.65	38.8460	2.50976
7364.87	38.8284	2.44370
7483.99	38.8106	2.37938
7605.04	38.7928	2.31676
7728.05	38.7749	2.25578
7853.04	38.7573	2.19640
7980.06	38.7414	2.13859
8109.13	38.7260	2.08230
8240.29	38.7110	2.01984
8373.57	38.6919	1.95883
8509.	38.6707	1.89967
8646.63	38.6480	1.84229
8786.48	38.6241	1.78665
8928.60	38.5991	1.73269
9073.01	38.5732	1.68036
9219.76	38.5464	1.62961
9368.88	38.5187	1.58039
9520.41	38.4900	1.53265
9674.40	38.4588	1.48636
9830.88	38.4272	1.44147
9989.88	38.3973	1.40445
10151.5	38.3675	1.36519
10315.7	38.3374	1.32701
10482.5	38.3070	1.28990
10652.0	38.2762	1.25381
10824.3	38.2449	1.21872
10999.4	38.2131	1.18461
11177.3	38.1805	1.15144
11358.1	38.1473	1.11919
11541.8	38.1131	1.08785
11728.5	38.0780	1.05737
11918.2	38.0419	1.02774
12111.0	38.0045	0.998937
12306.8	37.9657	0.970937
12505.9	37.9254	0.943717
12708.2	37.8832	0.917257
12913.7	37.8391	0.891535
13122.6	37.7926	0.866531
13334.8	37.7433	0.842225
13550.5	37.6909	0.818598
13769.7	37.6348	0.795631
13992.4	37.5743	0.773305
14218.7	37.5085	0.751604
14448.7	37.4364	0.730509
14682.4	37.3564	0.710004
14919.8	37.2666	0.690073
15161.2	37.1641	0.670698
15406.4	37.0448	0.651866
15655.6	36.9025	0.633559
15908.8	36.7267	0.615765
16166.1	36.4982	0.598468
16427.6	36.1763	0.581655
16693.3	35.6450	0.565311
16963.3	34.1376	0.549424
17036.5	27.4718	0.545235
17036.7	27.4721	3.74568
17237.6	35.2703	3.68006
17516.4	36.2122	3.59212
17799.8	36.7255	3.50562
18087.7	37.0824	3.42058
18380.2	37.3561	3.33701
18677.5	37.5776	3.25492
18979.6	37.7627	3.17432
19286.6	37.9211	3.09521
19598.5	38.0586	3.01760
19915.5	38.1795	2.94149
20237.6	38.2868	2.86688
20564.9	38.3826	2.79375
20897.6	38.4686	2.72211
21235.6	38.5462	2.65194
21579.0	38.6165	2.58324
21928.1	38.6803	2.51600
22282.7	38.7383	2.45020
22643.1	38.7911	2.38583
23009.4	38.8394	2.32287
23381.5	38.8834	2.26132
23759.7	38.9236	2.20114
24144.0	38.9603	2.14234
24534.5	38.9939	2.08488
24931.3	39.0245	2.02875
25334.6	39.0525	1.97393
25744.3	39.0780	1.92040
26160.7	39.1012	1.86815
26583.9	39.1223	1.81714
27013.8	39.1414	1.76737
27450.8	39.1588	1.71880
27894.8	39.1744	1.67142
28345.9	39.1885	1.62521
28804.4	39.2012	1.58014
29270.3	39.2126	1.53620
29743.7	39.2252	1.49336
30000.0	39.2161	1.47090
